current [A] k [1/m²]    sigma_x [mm]    sigma_x_err [mm]    sigma_z [mm]    sigma_z_err [mm]
-0.049  -38.4   2.90    0.02    1.88    0.01
-0.040  -31.6   2.77    0.01    1.68    0.02
-0.034  -27.3   2.66    0.02    1.56    0.01
-0.027  -21.4   2.46    0.01    1.47    0.01
-0.019  -14.6   2.24    0.01    1.52    0.01
-0.013  -10.3   2.11    0.01    1.61    0.01
-0.008  -6.3    2.01    0.01    1.79    0.02
0.001   0.80    1.88    0.01    2.17    0.01
0.006   4.30    1.82    0.01    2.45    0.02
0.010   8.30    1.76    0.01    2.81    0.01
0.016   12.3    1.76    0.01    3.13    0.02
0.024   19.4    1.71    0.01    3.59    0.01
0.032   25.3    1.73    0.01    4.00    0.01
0.040   31.6    1.82    0.01    4.40    0.02
0.049   38.4    2.02    0.01    5.03    0.02
0.056   44.7    2.15    0.01    5.45    0.01
0.062   48.6    2.24    0.01    5.71    0.01