current [A] k [1/m²]    sigma_x [mm]    sigma_x_err [mm]    sigma_z [mm]    sigma_z_err [mm]
-0.054  -42.7   7.10    0.04    2.52    0.03
-0.046  -36.4   6.26    0.03    2.09    0.02
-0.037  -29.7   5.51    0.03    1.67    0.01
-0.030  -23.3   4.71    0.02    1.29    0.01
-0.024  -19.4   4.56    0.02    1.18    0.01
-0.019  -14.6   4.02    0.02    0.94    0.01
-0.013  -10.3   3.54    0.02    0.79    0.01
-0.011  -8.7    3.31    0.02    0.75    0.01
-0.008  -6.3    3.06    0.01    0.75    0.01
0.003   2.00    2.40    0.02    1.10    0.01
0.013   10.3    1.79    0.02    1.70    0.01
0.022   17.0    1.33    0.01    2.18    0.01
0.032   25.3    0.88    0.02    2.86    0.01
0.043   34.0    0.91    0.02    3.75    0.02
0.053   42.3    1.42    0.02    4.67    0.02
0.062   48.6    1.88    0.02    5.57    0.04
0.070   55.7    2.44    0.02    6.50    0.04
0.078   61.7    2.98    0.02    7.55    0.04
0.084   66.4    3.45    0.03    8.35    0.06